17:51:45   Default
28102021 2.MessungPatient2
Time (ms); Pri Amplitude (mm); Sec Amplitude (mm);
32710;25.3904;21.8204;
32781;25.6939;22.8226;
32849;25.9063;23.6681;
32926;26.1365;25.0934;
32993;26.3598;26.4838;
33066;26.4828;28.0108;
33139;26.796;29.3629;
33215;27.0355;30.7613;
33286;27.4417;31.9037;
33362;27.8564;32.7733;
33433;28.3122;33.7691;
33514;28.7944;34.8643;
33585;29.1131;36.041;
33654;29.5518;37.1035;
33723;29.7572;38.2033;
33799;29.9547;39.5246;
33874;30.2019;40.5729;
33946;30.3383;41.4801;
34016;30.5765;41.3101;
34088;30.8087;39.5095;
34166;30.9705;37.3265;
34236;30.8511;36.1057;
34306;30.4754;35.1477;
34377;30.256;33.6022;
34451;29.9245;32.307;
34524;29.6195;31.422;
34598;29.3545;29.6017;
34676;29.1027;28.5642;
34746;28.8668;27.6904;
34819;28.6162;26.8524;
34891;28.1601;26.0742;
34967;27.6773;25.6878;
35041;27.3718;24.7583;
35113;27.2293;23.6461;
35188;27.0368;22.9646;
35256;26.9491;22.1087;
35326;26.6701;21.7304;
35399;26.5395;21.1111;
35472;26.4386;20.7371;
35545;26.2878;20.4928;
35617;26.1583;20.1185;
35690;26.1124;20.022;
35762;26.0785;19.9916;
35840;26.0266;19.991;
35905;25.9786;20.2741;
35986;25.9244;21.0317;
36054;25.878;22.3026;
36127;25.9872;22.8455;
36207;26.3816;23.3673;
36274;26.7268;23.8894;
36351;27.1593;24.3685;
36419;27.7037;25.2232;
36492;28.058;26.2283;
36573;28.5562;26.9442;
36638;28.9701;27.6926;
36710;29.5342;28.5824;
36793;29.9485;29.4261;
36856;30.3141;30.3845;
36930;30.7018;31.4125;
37002;31.0933;32.4178;
37083;31.7685;32.8531;
37153;32.2129;33.7944;
37226;32.5645;34.8736;
37292;32.7658;35.8735;
37366;32.9922;37.0238;
37448;33.3059;38.0748;
37513;33.5402;38.5;
37589;33.6692;39.1458;
37653;33.8141;38.8549;
37733;33.7288;38.3442;
37804;33.5062;38.4124;
37878;33.2609;38.1586;
37956;32.7842;37.082;
38025;32.525;35.8466;
38094;32.2596;34.5371;
38167;32.0313;33.4056;
38244;31.7877;32.2426;
38311;31.3157;31.3926;
38387;30.9689;30.592;
38459;30.6977;29.5774;
38530;30.3195;28.9053;
38607;30.0209;28.1753;
38677;29.6612;27.5848;
38757;29.1946;26.7896;
38825;29.0665;26.0085;
38895;28.7038;25.4862;
38973;28.3183;24.9727;
39049;28.0748;24.1815;
39120;27.8926;23.3128;
39194;27.8164;22.4704;
39267;27.6939;21.7129;
39335;27.3708;21.4233;
39412;27.3731;21.0699;
39491;27.187;20.9621;
39552;27.2701;21.0364;
39622;27.4577;21.0953;
39699;27.6272;21.6166;
39770;27.941;22.121;
39843;28.201;23.0136;
39918;28.444;23.9071;
39987;28.7238;24.836;
40066;28.8402;25.7891;
40132;29.1914;26.2743;
40214;29.637;27.1579;
40285;30.0616;27.6047;
40354;30.5126;28.013;
40424;31.0077;28.313;
40498;31.51;29.0635;
40570;31.7952;29.7769;
40647;31.9936;30.4273;
40720;32.2231;31.1883;
40794;32.4143;32.2206;
40868;32.5193;33.5177;
40936;32.6912;34.6045;
41010;32.6729;35.682;
41082;32.7898;36.3203;
41152;33.0349;36.8333;
41235;33.0551;37.1745;
41309;33.236;36.5704;
41374;33.0385;36.374;
41447;32.8243;35.9731;
41521;32.5345;35.2272;
41592;32.2438;34.4037;
41662;31.9661;33.4476;
41739;31.7019;32.7665;
41813;31.3325;31.8884;
41881;31.0065;31.2964;
41956;30.5327;30.9129;
42027;30.1743;29.6901;
42102;29.8909;28.7;
42173;29.7083;28.0166;
42251;29.4499;26.8683;
42323;29.1308;26.1198;
42392;29.1141;24.9927;
42467;28.8748;24.2301;
42540;28.6729;23.5704;
42612;28.4248;22.8522;
42689;28.1994;22.2639;
42763;28.0143;21.6429;
42831;27.8633;21.1869;
42905;27.7272;20.8053;
42975;27.6371;20.3614;
43054;27.4504;20.1735;
43122;27.3216;20.1358;
43196;27.2167;19.7787;
43265;27.226;20.0238;
43347;27.3241;20.335;
43418;27.346;20.4952;
43484;27.4003;20.53;
43559;27.4918;20.9126;
43630;27.5799;21.4359;
43705;27.5755;21.9189;
43779;27.7113;22.0064;
43852;27.8636;22.4486;
43922;28.1627;22.8031;
43997;28.6093;22.792;
44066;29.2329;22.5765;
44141;29.5909;23.2661;
44215;29.9351;23.5857;
44291;30.2673;24.4747;
44362;30.5547;25.3093;
44430;30.8859;26.0593;
44507;31.1946;26.9336;
44581;31.609;27.5008;
44650;32.0199;27.9403;
44723;32.42;28.5856;
44803;32.6623;29.5055;
44871;32.7881;30.338;
44943;32.9808;31.3052;
45017;32.9638;32.4804;
45092;33.0752;33.4571;
45159;33.0414;34.1049;
45238;33.0995;34.1021;
45306;33.1759;33.9533;
45386;33.0184;33.133;
45452;32.8863;32.598;
45520;32.7447;31.9665;
45602;32.4872;31.1089;
45677;32.2513;30.5987;
45739;31.9485;29.9;
45824;31.5948;29.1235;
45889;31.3444;28.5842;
45962;31.0313;28.2318;
46034;30.7667;27.5727;
46108;30.524;27.1635;
46186;29.9737;26.9472;
46251;29.8531;25.9421;
46330;29.7399;25.2776;
46397;29.6586;24.6981;
46473;29.5478;23.9509;
46545;29.3757;23.2178;
46619;29.2189;22.8132;
46692;29.0703;22.4099;
46763;28.9171;22.0591;
46842;28.7653;21.6945;
46913;28.6341;21.2514;
46984;28.5068;20.8303;
47055;28.3664;20.4974;
47130;28.2886;20.2;
47198;28.2218;19.9084;
47272;28.0342;19.9398;
47348;27.8454;19.7278;
47423;27.8359;19.3429;
47493;27.8762;19.3342;
47561;27.9546;19.1383;
47642;27.7973;19.3113;
47711;27.8856;20.2828;
47783;27.958;20.8111;
47859;28.2204;21.1925;
47934;28.6739;21.3744;
48010;28.9094;22.2797;
48074;29.3683;22.8136;
48147;29.8368;23.108;
48220;30.2617;23.5337;
48294;30.8821;23.3813;
48366;31.2792;24.2264;
48443;31.4235;24.7788;
48514;31.9092;25.3438;
48588;32.2615;25.9398;
48658;32.6326;26.4659;
48734;32.9599;27.5449;
48815;33.0624;28.7883;
48885;33.2573;29.9501;
48957;33.3404;31.4246;
49021;33.4426;32.4876;
49091;33.556;33.7036;
49168;33.6674;34.5819;
49240;33.6923;35.6698;
49315;33.7743;36.6933;
49387;33.7253;37.6538;
49454;33.6631;38.0593;
49535;33.759;37.6412;
49605;33.5785;37.412;
49674;33.5634;37.0813;
49748;33.2953;37.0869;
49825;33.2261;36.1202;
49904;32.9594;35.2749;
49974;32.7039;34.864;
50050;32.5274;33.9728;
50113;32.2646;33.1516;
50185;32.0572;32.3461;
50262;31.7923;31.3789;
50332;31.5392;30.5045;
50406;31.2034;30.0577;
50480;30.871;28.982;
50550;30.6576;28.012;
50624;30.6837;27.1927;
50695;30.5273;26.2429;
50772;30.1689;25.5557;
50844;30.0376;24.7299;
50919;29.8743;24.0622;
50989;29.7014;23.4365;
51061;29.4845;22.7551;
51136;29.3361;22.1388;
51207;29.2621;21.4361;
51279;29.1644;20.8419;
51350;29.025;20.3487;
51429;28.8816;19.6486;
51503;28.7351;19.2878;
51573;28.574;18.8979;
51643;28.4745;18.1613;
51714;28.3783;17.8125;
51793;28.2815;17.6031;
51866;28.1974;17.379;
51936;28.141;17.1161;
52009;28.0633;17.084;
52082;28.0645;16.999;
52153;28.0362;16.8944;
52227;27.9904;16.9703;
52302;27.9689;17.2208;
52376;27.9781;17.5849;
52447;28.0406;18.0401;
52522;27.9899;18.5461;
52600;27.9506;19.4819;
52669;27.9488;20.0157;
52741;28.0554;20.5369;
52812;28.3016;21.2069;
52885;28.6604;21.4015;
52959;28.9873;21.6434;
53031;29.3857;21.7261;
53104;30.0923;21.4226;
53175;30.6159;21.4795;
53246;31.0301;22.286;
53321;31.174;22.9553;
53394;31.3435;23.7097;
53466;31.4972;24.6317;
53539;31.8161;25.3398;
53613;31.8423;26.3036;
53682;32.0499;26.6286;
53761;32.3504;27.2166;
53831;32.583;28.1813;
53903;32.7103;28.8033;
53978;32.7784;29.9327;
54053;32.8802;30.857;
54122;32.9933;31.7193;
54194;33.0741;32.4034;
54267;33.138;32.691;
54343;33.1728;32.6273;
54417;32.9689;32.4242;
54493;32.8682;32.225;
54565;32.6974;31.7157;
54633;32.4019;30.9547;
54702;32.2323;29.9183;
54775;32.0419;29.1361;
54855;31.8906;28.1546;
54923;31.6401;27.4819;
54996;31.4163;26.6053;
55071;31.2274;25.4292;
55142;31.0691;24.8521;
55214;30.8127;24.0475;
55285;30.5282;23.3393;
55368;30.3962;22.7625;
55439;30.1051;22.326;
55512;29.957;21.5522;
55582;29.6875;21.1763;
55651;29.3678;20.948;
55723;29.1247;20.652;
55799;28.9114;20.1405;
55870;28.7393;19.6886;
55942;28.7098;19.2087;
56020;28.5423;19.1113;
56090;28.5959;19.4574;
56160;28.6074;19.7474;
56239;28.5654;19.6536;
56305;28.6169;19.6838;
56378;28.5394;19.629;
56454;28.6569;19.7129;
56522;28.6585;19.6954;
56598;28.5745;20.0768;
56673;28.4528;20.5127;
56742;28.4058;20.98;
56815;28.4538;20.9386;
56892;28.7142;21.2508;
56965;29.0253;21.6454;
57034;29.2777;22.2016;
57117;29.7411;22.5473;
57187;30.1354;22.8156;
57253;30.5423;23.3437;
57324;30.8377;23.8555;
57401;31.2385;24.6268;
57473;31.6192;25.0911;
57546;31.9935;25.5932;
57616;32.2642;26.2108;
57694;32.4768;26.4806;
57763;32.8837;26.7409;
57836;33.0501;27.3829;
57911;33.1848;27.8492;
57981;33.2901;28.8988;
58057;33.3437;29.7618;
58129;33.3803;30.5957;
58200;33.4756;31.8532;
58273;33.4983;32.8602;
58348;33.4594;33.3007;
58420;33.558;33.2997;
58493;33.5411;32.8351;
58566;33.319;32.7162;
58640;33.2983;32.0672;
58712;33.2575;30.9496;
58784;33.0369;30.1283;
58856;32.8849;29.2156;
58931;32.7076;28.344;
59002;32.5716;27.442;
59074;32.4232;26.5343;
59149;32.1839;25.7234;
59225;31.9488;24.8918;
59295;31.6586;24.1996;
59368;31.4224;23.5199;
59440;31.0881;22.9773;
59514;30.7014;22.7778;
59583;30.4076;22.4723;
59656;30.0675;21.5955;
59731;29.8932;21.0923;
59801;29.7021;20.5125;
59875;29.5481;19.7863;
59955;29.3598;19.3238;
60025;29.2591;18.8198;
60095;29.0428;18.4681;
60167;29.009;18.1369;
60244;28.9437;17.7957;
60319;28.7423;17.7084;
60387;28.6917;17.5969;
60461;28.6052;17.5018;
60533;28.5398;17.3586;
60609;28.4188;17.427;
60680;28.328;17.6432;
60750;28.3584;17.4364;
60825;28.2744;17.4291;
60896;28.3287;17.2257;
60970;28.3002;17.2197;
61037;28.3239;17.1342;
61112;28.3743;17.2006;
61187;28.3122;17.425;
61260;28.3072;17.7135;
61333;28.379;18.0879;
61407;28.2562;18.6094;
61476;28.3595;19.3307;
61556;28.3672;20.0046;
61626;28.5246;20.8366;
61695;28.5684;21.5932;
61775;28.6056;22.034;
61844;28.8888;22.5847;
61920;29.0133;23.2909;
61993;29.2396;23.5612;
62068;29.5424;23.9751;
62133;29.9678;24.2824;
62219;30.3815;24.5636;
62289;30.6509;24.9717;
62350;31.009;25.4333;
62429;31.1341;26.3497;
62503;31.2625;27.074;
62571;31.4187;27.7779;
62646;31.5031;28.8862;
62718;31.6496;29.8235;
62790;31.696;30.1809;
62866;31.8477;30.6914;
62936;31.9195;30.8052;
63011;31.9148;30.6683;
63080;31.8781;30.1586;
63159;31.9303;29.2899;
63228;31.8669;28.3037;
63298;31.7603;27.4499;
63375;31.7454;26.6613;
63444;31.5454;25.9843;
63516;31.4707;24.959;
63590;31.1525;24.0384;
63665;30.9148;23.5177;
63737;30.5616;22.8714;
63811;30.2887;22.0107;
63883;30.1334;21.3304;
63953;29.9112;20.7155;
64030;29.5579;20.195;
64101;29.4106;19.6545;
64174;29.2217;19.1691;
64248;28.9624;18.7075;
64324;28.8022;18.2303;
64399;28.6568;17.9662;
64467;28.5639;17.7057;
64544;28.3985;17.5542;
64608;28.2863;17.4827;
64684;28.2397;17.5127;
64760;27.9935;17.7512;
64836;27.9748;17.4757;
64902;27.7931;17.3545;
64982;27.8831;17.2917;
65051;27.9264;17.0205;
65127;27.8396;16.9608;
65200;27.8121;16.9979;
65266;27.8152;16.9215;
65339;27.9399;16.9211;
65421;27.7823;17.1056;
65488;27.8751;17.3272;
65563;27.9936;17.6966;
65636;27.9224;18.3617;
65705;27.9086;19.0631;
65780;27.7845;19.8848;
65855;27.9149;20.2714;
65928;28.0162;21.0752;
65998;28.2077;21.3196;
66070;28.602;21.4727;
66143;28.8605;21.8515;
66218;29.2242;22.3429;
66289;29.649;22.7152;
66362;29.9368;22.8892;
66435;30.3265;23.3749;
66512;30.7035;23.9001;
66583;31.0317;24.4005;
66655;31.2907;24.9603;
66726;31.5403;25.7839;
66797;31.6509;26.3411;
66872;31.995;26.608;
66942;32.1952;27.3308;
67015;32.2616;27.9567;
67092;32.3466;28.8799;
67162;32.4519;29.5862;
67240;32.5808;30.4557;
67314;32.6907;31.1856;
67385;32.9258;31.5034;
67455;33.0508;31.9483;
67529;33.0321;32.0291;
67602;33.098;31.5626;
67673;32.9823;31.2476;
67746;32.9689;30.6854;
67817;32.9672;29.5792;
67890;32.8933;28.5707;
67964;32.6991;27.6282;
68034;32.3743;26.8562;
68111;32.0555;25.9693;
68184;31.7718;25.1557;
68255;31.5591;24.4283;
68333;31.2546;23.4429;
68401;30.9334;22.5985;
68472;30.6622;21.8962;
68548;30.4467;21.374;
68621;30.1179;20.7563;
68694;29.6947;20.5681;
68766;29.2436;20.3358;
68838;29.0097;19.3141;
68914;28.837;18.9251;
68984;28.659;18.5584;
69064;28.371;18.0331;
69132;28.2214;17.7907;
69200;28.0783;17.5446;
69276;28.0409;17.3011;
69346;27.9558;17.1989;
69427;27.853;17.0582;
69495;27.793;16.9673;
69572;27.7785;16.9974;
69641;27.7504;17.0587;
69718;27.7247;17.0397;
69788;27.6008;17.3024;
69860;27.5906;17.4664;
69931;27.5681;17.3781;
70002;27.5737;17.5777;
70074;27.6718;17.7609;
70147;27.6058;18.6395;
70216;27.7716;19.3056;
70298;27.8147;19.9549;
70367;27.9154;20.7037;
70446;28.1758;20.9634;
70512;28.4743;21.2757;
70585;28.7799;21.5285;
70665;29.0892;22.0569;
70730;29.3889;22.4861;
70804;29.6314;23.0121;
70881;29.8775;23.366;
70950;30.2094;23.8307;
71021;30.577;24.4058;
71090;30.8502;24.8608;
71166;31.1441;25.3414;
71242;31.4204;25.7892;
71318;31.6449;26.5061;
71386;31.7058;27.1269;
71459;31.899;27.5959;
71528;32.2007;28.0985;
71602;32.5017;28.4219;
71678;32.7469;28.976;
71746;32.7666;29.9479;
71821;32.8313;30.3258;
71897;32.9361;30.8343;
71970;33.0985;31.3807;
72045;33.2435;31.0799;
72115;33.1899;30.7801;
72186;33.2796;30.203;
72261;33.3023;29.4022;
72333;33.1189;28.2778;
72407;33.0431;27.5488;
72479;32.8952;26.7054;
72552;32.6123;25.9283;
72622;32.2756;25.2253;
72697;32.0402;24.6832;
72775;31.714;23.7899;
72852;31.495;22.8044;
72913;31.3061;22.1402;
72996;31.0662;21.2214;
73066;30.6801;20.7722;
73132;30.5522;20.2493;
73208;30.2301;19.6802;
73282;29.9349;19.3607;
73354;29.7479;18.8534;
73423;29.4396;18.6063;
73498;29.1724;18.3769;
73571;28.9752;18.2583;
73648;28.7471;18.0031;
73715;28.4452;18.0523;
73793;28.1617;18.2483;
73865;28.1457;17.5395;
73930;28.0256;17.3559;
74016;28.0208;17.0165;
74081;27.9791;16.8429;
74156;27.9779;16.567;
74233;27.8695;16.5761;
74303;27.933;16.5327;
74373;27.9253;16.4297;
74451;27.8501;16.4838;
74519;27.8621;16.642;
74589;27.899;16.7954;
74670;27.9401;17.0443;
74738;27.8163;17.7145;
74812;27.7256;18.6398;
74887;27.8899;18.9677;
74955;28.1708;19.4902;
75026;28.4787;19.7473;
75102;28.988;20.1354;
75177;29.187;20.5904;
75251;29.7105;21.0693;
75319;30.005;21.4686;
75394;30.4171;21.681;
75465;30.9135;21.904;
75536;31.3645;22.2422;
75611;31.5907;22.8074;
75689;31.9337;23.4674;
75759;31.9587;24.4031;
75835;32.1076;24.8654;
75905;32.363;25.4531;
75975;32.5502;26.137;
76053;32.7877;26.9499;
76124;32.8162;27.8579;
76191;32.9374;28.6557;
76266;32.9896;29.3213;
76339;32.9982;29.9167;
76414;33.1001;30.1245;
76489;33.1641;29.7023;
76559;33.196;29.6284;
76632;33.2583;29.0618;
76709;33.1206;28.4326;
76782;32.9628;27.5074;
76851;32.9532;26.2936;
76923;32.6911;25.2852;
76998;32.4477;24.2248;
77067;32.1485;23.4708;
77144;31.6556;22.6397;
77213;31.3828;21.8222;
77288;31.1116;21.1391;
77361;30.7688;20.3598;
77431;30.4468;19.9154;
77505;30.2789;19.3902;
77578;29.8648;19.0147;
77652;29.5988;18.7278;
77731;29.1775;18.852;
77802;28.7683;18.9813;
77870;28.6275;18.1285;
77944;28.507;17.8211;
78018;28.4123;17.3495;
78093;28.2426;17.1023;
78165;28.1864;17.0268;
78234;28.0994;16.7846;
78303;28.0392;16.6298;
78387;27.9617;16.5731;
78458;27.9273;16.5929;
78532;27.8645;16.496;
78600;27.7763;16.5219;
78675;27.8772;16.5536;
78746;27.7304;16.875;
78813;27.7547;17.0261;
78888;27.7423;16.659;
78963;27.7497;16.5967;
79037;27.8977;16.6504;
79113;27.8735;16.9189;
79184;27.9466;17.1068;
79255;27.9624;17.7338;
79330;28.1442;18.249;
79407;28.2511;18.812;
79478;28.4941;19.2121;
79546;28.7915;19.4507;
79615;29.1763;19.991;
79690;29.471;20.7525;
79760;29.6554;21.5683;
79835;29.7368;22.3044;
79906;30.0759;22.7516;
79987;30.3024;23.5823;
80053;30.7801;23.622;
80127;31.0096;24.2244;
80198;31.4817;24.8304;
80273;31.7125;25.4725;
80346;31.904;25.9429;
80418;32.2639;26.4643;
80494;32.5408;27.2504;
80568;32.5884;27.9997;
80643;32.7541;28.8746;
80715;32.8202;29.694;
80792;32.8795;30.3538;
80859;32.9661;30.6399;
80928;33.0893;31.0923;
81002;33.203;30.7598;
81074;33.1576;30.4978;
81144;33.1715;29.8088;
81218;33.1294;28.9983;
81296;33.0574;28.4268;
81366;32.8953;27.8033;
81437;32.7194;26.9931;
81511;32.4302;26.2499;
81583;32.1581;25.2945;
81660;31.8543;24.5312;
81731;31.4547;24.0352;
81804;31.2381;22.8447;
81873;30.8467;22.2192;
81948;30.6704;21.4634;
82021;30.266;21.0717;
82092;29.9256;20.4219;
82167;29.6615;20.0272;
82242;29.4444;19.4541;
82311;29.1684;18.9037;
82386;28.9692;18.5105;
82458;28.7681;18.188;
82529;28.5301;18.009;
82603;28.4448;17.7957;
82678;28.2729;17.8017;
82750;28.037;17.9252;
82826;28.0179;17.3242;
82900;27.9046;17.1741;
82968;27.9627;16.8812;
83039;27.7753;16.7267;
83118;27.7769;16.5722;
83194;27.8969;16.411;
83261;27.9481;16.4299;
83333;27.8966;16.4091;
83412;27.923;16.463;
83480;27.8362;16.9178;
83549;27.9614;17.4293;
83629;27.9527;18.2633;
83703;27.9328;19.1355;
83775;27.9811;20.0207;
83846;28.2905;19.7695;
83914;28.7799;20.1449;
83991;29.1668;20.6398;
84062;29.6186;21.0536;
84135;30.0183;21.525;
84209;30.6937;21.0712;
84288;31.2611;21.651;
84356;31.561;22.3136;
84423;31.6452;23.325;
84498;31.859;24.3811;
84573;32.0807;25.2443;
84644;32.3048;26.244;
84712;32.3108;27.0504;
84788;32.5226;27.7585;
84861;32.7552;28.2412;
84937;33.0011;29.1655;
85010;33.1648;29.9159;
85081;33.1937;31.0407;
85156;33.2687;31.9194;
85231;33.4164;32.64;
85305;33.489;32.7956;
85377;33.3448;33.1332;
85451;33.4394;32.7952;
85527;33.3642;31.9617;
85591;33.3763;31.2653;
85663;33.1796;30.6431;
85737;32.8747;29.3957;
85809;32.7383;28.1764;
85881;32.6031;27.3535;
85957;32.3525;26.2501;
86032;32.0767;25.5003;
86108;31.7229;24.874;
86172;31.6296;23.9138;
86248;31.3368;23.2695;
86318;30.9672;22.6742;
86392;30.7527;21.9545;
86469;30.4816;21.2046;
86542;30.2721;20.5303;
86610;30.1333;20.0472;
86687;29.8485;19.7207;
86757;29.4982;19.5523;
86829;29.3546;18.7693;
86910;29.2462;18.4343;
86979;29.1938;17.8892;
87048;29.102;17.4528;
87125;28.9246;16.9875;
87196;28.8621;16.8006;
87263;28.7922;16.5081;
87348;28.7508;16.3889;
87421;28.6797;16.3243;
87484;28.6457;16.2493;
87558;28.7052;16.4972;
87633;28.6501;16.9575;
87712;28.5635;17.623;
87777;28.5503;18.4271;
87854;28.5432;19.1343;
87921;28.5931;19.9608;
88000;28.7346;20.881;
88072;28.9528;21.5582;
88140;29.2077;22.1654;
88219;29.5341;22.7915;
88293;29.8948;23.3907;
88357;30.098;23.7656;
88432;30.4568;24.2323;
88511;30.6924;24.9866;
88582;30.9189;25.7006;
88651;31.1557;26.5274;
88730;31.2511;27.1432;
88804;31.3921;28.0038;
88873;31.5288;28.4979;
88941;31.7849;29.1272;
89016;31.9662;29.6239;
89086;32.3238;29.6776;
89160;32.5611;30.3774;
89233;32.7233;31.2695;
89310;32.867;32.0732;
89387;33.0069;32.6409;
89457;33.0473;33.4052;
89528;33.2456;33.8542;
89606;33.2387;34.1188;
89669;33.2761;34.3709;
89747;33.1267;34.376;
89815;33.0689;33.9608;
89888;33.0661;33.5657;
89965;33.0761;33.2659;
90034;32.9904;32.8855;
90109;32.973;32.3584;
90178;32.9523;31.6797;
90255;32.8062;30.9999;
90324;32.6291;30.1777;
90403;32.4843;29.3401;
90476;32.2831;28.4836;
90548;32.1756;27.6498;
90620;31.7749;26.6404;
90689;31.5791;25.8763;
90759;31.2664;25.4975;
90838;30.9254;24.7908;
90913;30.713;23.8591;
90983;30.528;22.9899;
91056;30.3352;22.2325;
91126;30.0527;21.6989;
91200;29.9242;20.9672;
91268;29.7773;20.2765;
91348;29.5351;19.6603;
91420;29.403;19.0963;
91490;29.1772;18.6955;
91565;29.04;18.3072;
91635;28.7759;18.0809;
91713;28.6816;17.8691;
91785;28.5525;17.5761;
91856;28.3151;17.6519;
91931;28.0908;17.8232;
92002;28.0761;17.2294;
92079;28.1053;17.1316;
92146;28.0162;16.8052;
92221;27.9639;16.7808;
92291;27.8847;16.4899;
92365;27.8674;16.4052;
92439;27.8996;16.4029;
92513;27.8066;16.3242;
92585;27.8167;16.4199;
92660;27.8314;16.5397;
92733;27.7465;16.6664;
92803;27.8275;16.8286;
92876;27.8328;17.0591;
92957;27.7026;17.3258;
93023;27.8643;17.6642;
93100;27.9384;18.3935;
93170;28.189;18.8851;
93238;28.5723;19.412;
93314;28.7626;20.0799;
93386;29.0733;20.7943;
93465;29.3269;21.2665;
93536;29.634;21.8753;
